# VERSION 10104 BURN  -- Tue Aug  5 18:11:14 2008 UTC -- created by alex on c.spa.umn.edu from file /g/alex/kepler/sollo03/s20/s20#presn
number of variables = 7
mass
dens
temp
pres
velx
velz
ye
3196350.69638 3.9784e+30 3635520356.37 7795374284.93 2.50091418893e+27 -2373034.56479 0.0 0.442928552838
7263101.19409 8.12410807141e+30 3575376942.95 7796615864.07 2.44967087524e+27 -6038017.9641 0.0 0.443083925534
8878944.50677 1.33370599901e+31 3521171967.4 7797530277.38 2.40367041447e+27 -7144213.35427 0.0 0.443225762333
10329038.2816 1.9892e+31 3463875339.38 7798276717.55 2.35523755887e+27 -8189593.82303 0.0 0.443377669126
11861095.1083 2.9838e+31 3394190204.6 7798864414.85 2.2966011827e+27 -9416680.63314 0.0 0.443565341423
13355826.0975 3.9784e+31 3321764248.78 7799078137.77 2.23597545435e+27 -10406001.3957 0.0 0.443764094536
14593438.2296 4.973e+31 3256704247.22 7798898932.48 2.18179506158e+27 -11251179.2078 0.0 0.443946155167
15667815.1365 5.9676e+31 3196940096.41 7798408375.9 2.1322615583e+27 -11998009.5785 0.0 0.444116565012
16840826.756 7.4595e+31 3127295722.62 7797421075.31 2.07482925254e+27 -12988663.5948 0.0 0.444319276976
18103237.873 8.9514e+31 3050839250.33 7795790746.81 2.01214508931e+27 -13867215.9352 0.0 0.44454737708
19235007.1992 1.04433e+32 2979840668.53 7793724183.49 1.95428475085e+27 -14663704.4527 0.0 0.444764912647
20269153.9671 1.19352e+32 2913248458.25 7791261440.53 1.90032629877e+27 -15397127.8003 0.0 0.444974460338
21256919.2769 1.352656e+32 2848225226.31 7788330562.72 1.84793454418e+27 -16124374.7538 0.0 0.445184710902
22209719.8773 1.511792e+32 2784658998.31 7784929190.59 1.79700373025e+27 -16805496.0225 0.0 0.445396140959
23105931.6982 1.670928e+32 2724151113.3 7781167169.41 1.7487912848e+27 -17448517.6496 0.0 0.445603294309
23955031.3273 1.83006400001e+32 2666322681.27 7777057252.15 1.70296167955e+27 -18059480.0622 0.0 0.445807148512
24764238.2935 1.98920000001e+32 2610872036.88 7772621425.4 1.65924780316e+27 -18643057.8266 0.0 0.446008443243
25539195.7375 2.14833600002e+32 2557554782.15 7767868339.69 1.61743242148e+27 -19202954.2516 0.0 0.446207807343
26284409.2221 2.30747200003e+32 2506168765.46 7762803730.5 1.57733570674e+27 -19742156.68 0.0 0.446405773171
27003540.8944 2.46660800005e+32 2456544558.64 7757431768.32 1.53880655376e+27 -20263113.8916 0.0 0.446602793208
27699613.1882 2.62574400006e+32 2408537561.41 7751769908.71 1.50171635895e+27 -20767861.6927 0.0 0.446799184063
28375153.6054 2.78488000008e+32 2362024824.23 7745811576.66 1.46595445407e+27 -21258112.5984 0.0 0.446995324705
29032300.1871 2.9440160001e+32 2316898932.88 7739565848.56 1.43142468018e+27 -21735322.9473 0.0 0.447191476213
29672880.0748 3.10315200013e+32 2273066113.22 7733038522.92 1.39804277201e+27 -22200742.9216 0.0 0.44738787453
30298468.9376 3.26228800015e+32 2230443231.09 7726246356.97 1.36573432709e+27 -22655455.7738 0.0 0.44758464983
30910436.5069 3.42142400018e+32 2188957956.77 7719175606.77 1.33443320644e+27 -23100409.9569 0.0 0.447782081635
31509982.2287 3.58056000021e+32 2148544142.93 7711843988.06 1.30408026174e+27 -23536433.7285 0.0 0.447980271375
32098163.5085 3.73969600024e+32 2109143270.6 7704253785.28 1.27462230259e+27 -23964260.5274 0.0 0.448179354926
32675918.0865 3.89883200027e+32 2070702418.35 7696406802.12 1.24601125858e+27 -24384543.7635 0.0 0.448379439338
33244082.2485 4.05796800031e+32 2033173363.18 7688309913.85 1.21820348916e+27 -24797867.1446 0.0 0.44858056665
33803405.6326 4.21710400034e+32 1996512373.64 7679966669.05 1.19115921009e+27 -25204754.5359 0.0 0.448782790274
34354563.3604 4.37624000038e+32 1960679539.54 7671380325.76 1.1648420137e+27 -25605678.1819 0.0 0.448986153201
34898166.1107 4.53537600042e+32 1925638259.84 7662555360.95 1.13921846456e+27 -26001065.5751 0.0 0.449190675046
35434768.4622 4.69451200047e+32 1891355379.0 7653485243.65 1.11425775637e+27 -26391304.9229 0.0 0.449396437705
35964876.1172 4.85364800051e+32 1857798737.2 7644200325.26 1.08993141858e+27 -26776750.8663 0.0 0.449603262039
36488951.8827 5.01278400056e+32 1824940074.0 7634695981.85 1.06621306599e+27 -27157727.7156 0.0 0.449811191254
37007420.6101 5.17192000061e+32 1792752669.79 7624979921.71 1.0430781811e+27 -27534533.2404 0.0 0.450020175616
37520673.611 5.33105600066e+32 1761211746.05 7615057748.06 1.02050392584e+27 -27907441.6446 0.0 0.450230175773
38029072.3825 5.49019200072e+32 1730294229.82 7604934253.5 9.98468977388e+26 -28276706.1388 0.0 0.450441152805
38532951.7913 5.64932800078e+32 1699978865.08 7594608974.05 9.76953384481e+26 -28642561.0075 0.0 0.450653079764
39032623.0265 5.80846400083e+32 1670244453.82 7584109903.41 9.55938440765e+26 -29005224.5367 0.0 0.450865749194
39528376.073 5.96760000089e+32 1641072167.64 7573441516.11 9.3540657376e+26 -29364901.7621 0.0 0.451079070459
40020481.6603 6.12673600096e+32 1612444479.51 7562595343.01 9.15341246696e+26 -29721783.8556 0.0 0.45129309244
40509193.2602 6.28587200102e+32 1584343955.74 7551592626.16 8.95726870279e+26 -30076049.8202 0.0 0.451507576846
40994748.7632 6.44500800109e+32 1556754926.29 7540429240.12 8.76548724948e+26 -30427867.136 0.0 0.451722527602
41477371.7434 6.60414400116e+32 1529663095.73 7529090624.88 8.57792890791e+26 -30777392.5371 0.0 0.451938006023
41957273.1069 6.76328000123e+32 1503052245.5 7517633444.08 8.3944618429e+26 -31124774.5931 0.0 0.45215350827
42434652.2337 6.9224160013e+32 1476909730.49 7506039771.34 8.21496103359e+26 -31470152.8059 0.0 0.452369128406
42909697.6924 7.08155200137e+32 1451222811.5 7494311881.51 8.03930775799e+26 -31813658.8242 0.0 0.452584800815
43382588.3241 7.24068800145e+32 1425979167.27 7482458135.01 7.86738913335e+26 -32155417.2474 0.0 0.452800406539
43853494.1091 7.39982400153e+32 1401167079.04 7470486676.65 7.69909770061e+26 -32495546.2279 0.0 0.453015825674
44322576.9155 7.5589600016e+32 1376775375.28 7458404913.84 7.53433104697e+26 -32834157.9736 0.0 0.453230950697
44789991.1691 7.71809600168e+32 1352793446.14 7446218917.29 7.37299146223e+26 -33171359.2024 0.0 0.453445683009
45255884.4664 7.87723200177e+32 1329211110.6 7433935597.42 7.21498562517e+26 -33507251.6096 0.0 0.453659920197
45720398.1382 8.03636800185e+32 1306018644.54 7421561394.47 7.0602243172e+26 -33841932.2563 0.0 0.453873563685
46183667.7528 8.19550400194e+32 1283206747.82 7409102453.99 6.90862216034e+26 -34175493.762 0.0 0.454086516259
46645823.5846 8.35464000202e+32 1260766468.46 7396565803.34 6.76009737492e+26 -34508025.6509 0.0 0.454298677257
47106991.1949 8.51377600211e+32 1238688404.61 7383977767.3 6.61457155817e+26 -34839615.9287 0.0 0.454509797695
47567291.5189 8.6729120022e+32 1216965945.41 7371298952.39 6.47196948972e+26 -35170347.9976 0.0 0.454720115149
48026841.381 8.83204800229e+32 1195589522.01 7358574539.86 6.3322189323e+26 -35500303.0453 0.0 0.454929245107
48485753.8489 8.99118400238e+32 1174552968.05 7345771734.87 6.19525046875e+26 -35829558.2135 0.0 0.455137354781
48944138.5581 9.15032000247e+32 1153847253.83 7332936753.24 6.06099733289e+26 -36158188.931 0.0 0.455344067552
49402101.9008 9.30945600257e+32 1133467188.64 7320024861.92 5.92939527143e+26 -36486266.6778 0.0 0.455549653321
49859747.3469 9.46859200266e+32 1113404020.78 7307089256.0 5.80038239534e+26 -36813861.8246 0.0 0.455753689134
50317175.8913 9.62772800276e+32 1093652004.11 7294113032.66 5.67389906315e+26 -37141041.8856 0.0 0.455956241484
50774485.8503 9.78686400285e+32 1074204997.87 7281094030.07 5.54988775722e+26 -37467872.1224 0.0 0.456157290508
51231773.1207 9.94600000295e+32 1055057414.24 7268025727.36 5.42829297269e+26 -37794415.4829 0.0 0.456356786741
51689131.7237 1.0105136003e+33 1036201914.02 7254943789.9 5.30906111161e+26 -38120734.081 0.0 0.456554510579
52146653.9963 1.02642720031e+33 1017633298.36 7241841677.5 5.19214039401e+26 -38446887.9849 0.0 0.456750425298
52604430.4256 1.04234080032e+33 999346189.786 7228719024.58 5.07748076494e+26 -38772935.5712 0.0 0.456944498036
53062549.8722 1.05825440033e+33 981335455.593 7215574432.79 4.96503380991e+26 -39098933.5909 0.0 0.457136693161
53521099.8059 1.07416800035e+33 963595702.061 7202419001.88 4.85475267515e+26 -39424937.6486 0.0 0.457326872667
53980166.4671 1.09008160036e+33 946122060.634 7189252334.75 4.7465919952e+26 -39751001.8775 0.0 0.45751500733
54439835.1372 1.10599520037e+33 928908928.391 7176095247.39 4.6405078215e+26 -40077180.6788 0.0 0.457700965446
54900190.0224 1.12190880038e+33 911952753.441 7162925853.66 4.53645756125e+26 -40403527.8634 0.0 0.457884758509
55361314.569 1.13782240039e+33 895247496.185 7149778501.65 4.43439991252e+26 -40730097.3183 0.0 0.458066209056
55823291.8483 1.1537360004e+33 878788840.248 7136651305.4 4.33429481251e+26 -41056941.8007 0.0 0.45824529831
56286204.1804 1.16964960041e+33 862572980.398 7123534860.08 4.23610338229e+26 -41384112.7265 0.0 0.458422015332
56750133.3594 1.18556320042e+33 846595413.56 7110438286.57 4.13978787333e+26 -41711660.9499 0.0 0.458596287901
57215161.1082 1.20147680043e+33 830851306.168 7097380176.51 4.04531162064e+26 -42039637.1704 0.0 0.458768038165
57681369.1543 1.21739040044e+33 815336562.736 7084364363.66 3.95263899994e+26 -42368091.8489 0.0 0.458937262001
58148838.909 1.23330400045e+33 800048114.517 7071373046.3 3.86173538533e+26 -42697074.3673 0.0 0.459104033516
58617652.0556 1.24921760046e+33 784980422.628 7058446359.74 3.77256710475e+26 -43026635.1188 0.0 0.459268276112
59087890.6769 1.26513120047e+33 770130556.191 7045566757.15 3.68510140924e+26 -43356823.349 0.0 0.459430109315
59559637.0738 1.28104480048e+33 755494215.285 7032749748.5 3.59930643228e+26 -43687688.5993 0.0 0.459589581369
60032974.0374 1.29695840049e+33 741068093.623 7019989439.02 3.51515115847e+26 -44019279.9293 0.0 0.459746830457
60507984.9605 1.3128720005e+33 726848103.631 7007299645.32 3.43260538936e+26 -44351646.8052 0.0 0.459901969836
60984754.0638 1.32878560051e+33 712830763.955 6994681067.17 3.35163971424e+26 -44684839.5805 0.0 0.460055187309
61463366.3908 1.34469920053e+33 699012554.259 6982136053.59 3.27222548192e+26 -45018908.9537 0.0 0.460206692399
61943907.8042 1.36061280054e+33 685390501.888 6969655103.65 3.19433477331e+26 -45353905.3347 0.0 0.460356759083
62426465.1831 1.37652640055e+33 671961011.578 6957244151.84 3.11794037335e+26 -45689879.6704 0.0 0.460505674272
62911126.4453 1.39244000056e+33 658721511.842 6944885673.32 3.04301574764e+26 -46026882.5062 0.0 0.460653823299
63397980.6809 1.40835360057e+33 645668523.552 6932585658.26 2.96953501598e+26 -46364965.0555 0.0 0.460801562318
63887118.3881 1.42426720058e+33 632799287.633 6920333697.21 2.8974729311e+26 -46704179.1857 0.0 0.460949331116
64378631.2235 1.44018080059e+33 620111442.292 6908111006.39 2.82680485619e+26 -47044577.18 0.0 0.461097600424
64872612.0399 1.4560944006e+33 607602529.403 6895900131.26 2.75750674278e+26 -47386211.2484 0.0 0.461246911018
65369155.0039 1.47200800061e+33 595270264.061 6883682516.71 2.68955510939e+26 -47729133.4569 0.0 0.461397789614
65868355.5804 1.48792160062e+33 583112589.822 6871437409.77 2.62292702117e+26 -48073395.5921 0.0 0.461550737746
66370310.534 1.50383520063e+33 571127553.656 6859141056.19 2.55760006978e+26 -48419049.0923 0.0 0.461706327119
66875117.9131 1.51974880064e+33 559313441.326 6846768789.42 2.49355235411e+26 -48766144.9231 0.0 0.461865050735
67382877.1477 1.53566240065e+33 547668371.76 6834299777.85 2.430762461e+26 -49114734.0184 0.0 0.462027449381
67893688.8972 1.55157600066e+33 536191216.354 6821697781.33 2.36920944824e+26 -49464866.1469 0.0 0.462194028634
68407655.2237 1.56748960067e+33 524879978.003 6808948608.7 2.30887282493e+26 -49816591.1052 0.0 0.462365302827
68924879.5769 1.58340320068e+33 513733763.431 6796012675.29 2.24973253687e+26 -50169957.2427 0.0 0.462541782089
69445466.8799 1.59931680069e+33 502750644.102 6782874503.84 2.19176894782e+26 -50525012.9543 0.0 0.462724051713
69969523.7454 1.6152304007e+33 491929490.678 6769500879.01 2.13496282632e+26 -50881805.5726 0.0 0.462912676861
70497158.1989 1.63114400071e+33 481269121.996 6755857574.75 2.07929532983e+26 -51240381.2679 0.0 0.463108321933
71028480.0979 1.64705760072e+33 470767810.888 6741921142.11 2.02474798977e+26 -51600785.9338 0.0 0.463311789191
71563601.2476 1.66297120073e+33 460424364.094 6727663418.55 1.97130269963e+26 -51963064.4427 0.0 0.46352365522
72102634.3693 1.67888480074e+33 450239005.38 6713022827.79 1.91894170191e+26 -52327258.2633 0.0 0.463744400813
72645694.5878 1.69479840075e+33 440208167.027 6697972134.61 1.86764756925e+26 -52693410.8355 0.0 0.463976565383
73192900.201 1.71071200076e+33 430330994.101 6682414003.44 1.81740320233e+26 -53061562.9209 0.0 0.464222785423
73744391.3537 1.72662560077e+33 420575766.429 6664929236.3 1.76819181972e+26 -53431770.0044 0.0 0.464554680746
74300303.7599 1.74253920078e+33 410983094.648 6649166299.29 1.71999702811e+26 -53804096.5951 0.0 0.464821004156
74860751.5306 1.75845280079e+33 401547163.552 6632782910.67 1.67280271359e+26 -54178569.2645 0.0 0.465099189386
75425859.9758 1.7743664008e+33 392257798.52 6616046709.55 1.62659300254e+26 -54555232.5675 0.0 0.465388519893
75995759.6953 1.79028000081e+33 383118560.335 6598789309.88 1.58135230593e+26 -54934120.2543 0.0 0.46569007863
76570583.4575 1.80619360082e+33 374124350.539 6581119997.78 1.53706528521e+26 -55315274.2898 0.0 0.466003870871
77150470.4525 1.82210720083e+33 365273153.066 6563057175.21 1.49371686179e+26 -55698738.3689 0.0 0.466330109135
77735564.9329 1.83802080084e+33 356562306.266 6544654289.43 1.45129221118e+26 -56084557.281 0.0 0.46666854312
78326012.4678 1.85393440085e+33 347994642.846 6525808182.3 1.40977676006e+26 -56472767.0898 0.0 0.467018778259
78921955.5912 1.86984800086e+33 339572542.197 6506445837.36 1.36915616247e+26 -56863396.3983 0.0 0.467379615888
79523532.8105 1.88576160086e+33 331299203.944 6486475212.37 1.32941628074e+26 -57256463.4546 0.0 0.467749362494
80130878.1311 1.90167520087e+33 323176720.738 6465831564.11 1.2905431627e+26 -57651977.7215 0.0 0.468126208339
80641164.4401 1.91228426754e+33 316402893.851 6452921143.58 1.25885601891e+26 -57917267.9443 0.0 0.468420346799
81057830.9814 1.92289333422e+33 303747385.211 6700086804.24 1.23388153294e+26 -58198646.3918 0.0 0.467207247654
81491875.8014 1.93350240089e+33 285635652.468 7093256648.23 1.2092883148e+26 -58508546.0315 0.0 0.465048461482
82050922.1747 1.9494160009e+33 279484285.116 7074705102.91 1.17905311293e+26 -58975729.2046 0.0 0.465315164624
82727263.44 1.96532960091e+33 272250879.033 7052249574.02 1.1436572129e+26 -59445696.9679 0.0 0.465638811731
83410300.7471 1.98124320091e+33 265172242.371 7029256320.94 1.10913138946e+26 -59918419.1615 0.0 0.46596669351
84100168.9072 1.99715680092e+33 258243694.098 7005792035.81 1.07545843228e+26 -60393876.5947 0.0 0.466298503765
84797013.3972 2.01307040093e+33 251458907.524 6981961566.07 1.04262141376e+26 -60872067.2336 0.0 0.466634243318
85500981.4267 2.02898400094e+33 244820246.931 6957647036.18 1.01060370323e+26 -61352975.0766 0.0 0.46697364366
86212223.2208 2.04489760094e+33 238320842.741 6932967665.75 9.79388934666e+25 -61836605.222 0.0 0.467316741532
86930892.9377 2.06081120095e+33 231962246.803 6907836885.55 9.48961032633e+25 -62322928.8298 0.0 0.467662649431
87657153.1296 2.07672480096e+33 225735301.138 6882428096.89 9.19304182637e+25 -62811920.4645 0.0 0.468012345183
88391159.4883 2.09263840097e+33 219650861.084 6856448612.73 8.90402854727e+25 -63303506.9592 0.0 0.468362814759
89133078.3363 2.10855200097e+33 213689683.708 6830320238.07 8.62241731274e+25 -63797690.798 0.0 0.468717031138
89883081.5758 2.12446560098e+33 207864994.852 6803682966.22 8.34805796603e+25 -64294412.9419 0.0 0.469071387909
90388276.5494 2.12983526551e+33 204056890.172 6785756621.77 8.16929546079e+25 -64462576.7603 0.0 0.469307983092
90704793.0596 2.13769132663e+33 201701437.141 6774623286.64 8.05922947717e+25 -64709136.8374 0.0 0.469457289962
91119913.964 2.14709208695e+33 198670145.388 6759808959.86 7.91746903209e+25 -65004973.3266 0.0 0.469650018734
91570061.1338 2.15629280099e+33 195439386.1 6743905726.45 7.7670259197e+25 -65295365.9266 0.0 0.469859160003
92183289.2008 2.172206401e+33 191133225.738 6722183044.51 7.56703823089e+25 -65799623.5404 0.0 0.470141968437
92967415.432 2.18812000101e+33 185802631.326 6694369171.06 7.32023105487e+25 -66306299.0668 0.0 0.470497336708
93760527.4695 2.20403360101e+33 180594117.355 6666177196.85 7.0799606463e+25 -66815308.402 0.0 0.47085123808
94562843.1377 2.21994720102e+33 175489569.06 6638072038.54 6.84609076665e+25 -67326659.8336 0.0 0.471206245749
95374571.5558 2.23586080103e+33 170509138.58 6609458181.85 6.61848813149e+25 -67840238.1439 0.0 0.471556717644
96195933.4721 2.25177440103e+33 165627247.96 6580987593.7 6.39702106879e+25 -68356067.228 0.0 0.471908662454
97027148.6359 2.26768800104e+33 160867617.684 6551973280.88 6.18156089184e+25 -68874013.1304 0.0 0.472253458928
97868419.6673 2.28360160104e+33 156212383.246 6522839247.21 5.97198036048e+25 -69394037.4185 0.0 0.472596248181
98719983.523 2.29951520105e+33 151664079.778 6493470477.84 5.76815463382e+25 -69916053.1983 0.0 0.472934758846
99582128.364 2.31542880105e+33 147201559.721 6464427240.87 5.56996086868e+25 -70440084.8146 0.0 0.473275705244
100455101.015 2.33134240106e+33 142859155.318 6434673093.65 5.3772793082e+25 -70965889.2577 0.0 0.473605514861
101339091.398 2.34725600106e+33 138620562.408 6404622110.81 5.18999117693e+25 -71493316.6513 0.0 0.473928644241
102234352.804 2.36316960107e+33 134478878.255 6374415827.82 5.00797957872e+25 -72022247.3115 0.0 0.474247234482
103141149.954 2.37908320107e+33 130435994.7 6343942125.22 4.8311297069e+25 -72552520.6756 0.0 0.474559434513
104059742.165 2.39499680108e+33 126490339.197 6313189571.83 4.6593285902e+25 -73083960.3211 0.0 0.474864766043
104990399.945 2.41091040108e+33 122638839.04 6282193406.07 4.49246506537e+25 -73616385.7653 0.0 0.475163511264
105933406.595 2.42682400109e+33 118879731.747 6250944421.01 4.33042982292e+25 -74149601.8285 0.0 0.475455730758
106889049.544 2.44273760109e+33 115212415.912 6219401725.86 4.17311538601e+25 -74683383.1616 0.0 0.47574047363
107857623.025 2.4586512011e+33 111634519.966 6187575014.93 4.020416018e+25 -75217489.2851 0.0 0.476018156189
108839435.74 2.4745648011e+33 108143732.417 6155480462.2 3.87222773765e+25 -75751664.2392 0.0 0.47628888547
109834805.28 2.4904784011e+33 104739184.153 6123085342.67 3.72844832712e+25 -76285632.6994 0.0 0.476552148865
110844054.854 2.50639200111e+33 101419391.43 6090375954.65 3.58897731389e+25 -76819050.208 0.0 0.476807765466
111867519.087 2.52230560111e+33 98182327.1347 6057362532.68 3.45371580139e+25 -77351592.0967 0.0 0.477056190719
112905545.65 2.53821920111e+33 95026349.4826 6024043242.81 3.32256660784e+25 -77882908.5624 0.0 0.477297376647
113780883.11 2.54882826778e+33 92462681.5133 5996096559.65 3.2165754685e+25 -78236246.1148 0.0 0.477492614663
114489571.98 2.55943733445e+33 90446907.2909 5973510415.9 3.13356932651e+25 -78588779.0158 0.0 0.477645237688
115205137.601 2.57004640112e+33 88465472.1254 5950771943.19 3.05228595118e+25 -78940391.6751 0.0 0.477794801526
116110571.544 2.58596000112e+33 86030928.4032 5922072140.81 2.95285072369e+25 -79465865.7019 0.0 0.477978095432
117210533.159 2.60187360113e+33 83185558.6915 5887335230.45 2.83721092848e+25 -79988528.9946 0.0 0.47819065609
118326948.762 2.61778720113e+33 80414517.7515 5852199176.93 2.72522158237e+25 -80507879.5148 0.0 0.478396226922
119460225.366 2.63370080113e+33 77716797.2338 5816639847.93 2.61679493281e+25 -81023367.962 0.0 0.478594648174
120610779.328 2.64961440113e+33 75090984.3766 5780651643.15 2.51184470479e+25 -81534405.8371 0.0 0.478786191498
121779040.883 2.66552800113e+33 72535510.6609 5744235561.56 2.41028598562e+25 -82040438.1867 0.0 0.478971426189
122965448.991 2.68144160114e+33 70049684.1273 5707342239.36 2.31203529403e+25 -82540898.945 0.0 0.479149929439
124170453.979 2.69735520114e+33 67631677.7568 5669972317.93 2.21701056119e+25 -83035176.136 0.0 0.479322131501
